v_x,v_y,omega,delta
4.427689623726776,0.2757983204570344,-0.5671512957548983,0.13651357070291725
4.415193237460177,0.24956515124452058,-0.5522043951890715,0.13726795902751626
4.401735261844103,0.22314742667566476,-0.5373065388874737,0.13786304343583447
4.38597534845966,0.19620843171329871,-0.522366805460759,0.1383165644972324
4.366792419009979,0.1684907309610213,-0.5072983601699311,0.13865398779730434
4.34338364446904,0.06408489053673695,-0.4920305288832887,-0.00021999713146590683
4.315313029035076,0.03693060830889383,-0.4765168880510262,-0.0015754826425204177
4.282509306425123,0.00905292922932259,-0.4607393032183624,-0.002204764630391757
4.245219895452908,-0.019284809045591822,-0.44470782158031175,-0.0013668133127560898
4.203932405493131,-0.04774353322931155,-0.4284566596284278,0.0015987130144865067
4.159279695296332,-0.0759545668561042,-0.41203748803497525,0.007224848506926712
4.111946126409989,-0.10356253841965046,-0.39551198773912205,0.015870907416130998
4.062589294195265,-0.1302569262941335,-0.37894542271459897,0.027679670111787954
4.011785575233705,-0.15578925974208735,-0.36240197101107335,0.042544115875657304
3.960002413054739,-0.17997739159306023,-0.3459415367141452,0.060092539702323436
3.907596439875523,-0.20270045973335585,-0.32961747604280633,0.07970389990349204
3.8548332671615224,-0.22388838037299055,-0.31347508885715897,0.10056544114693422
3.8019207377063964,-0.2435090054069395,-0.29755086884244797,0.12177351177077478
3.749044318014859,-0.26155524568092153,-0.28187211259817696,0.1424550879313645
3.696394345558151,-0.2780337045587149,-0.26645646824729463,0.16187267035318284
3.644179718615317,-0.29295566294915343,-0.2513115406221945,0.17948649036679615
3.5926280510061503,-0.30633041704423586,-0.23643496163425864,0.19497177570613253
3.5419757092817514,-0.31816003220125744,-0.2218151223220922,0.20820355201279464
3.4924515927718582,-0.32843461764490844,-0.20743241480880992,0.2192239547018648
3.4442576225709325,-0.33712924201982836,-0.19326066286764373,0.22820336992730195
3.3975490350040447,-0.34420589128547646,-0.17926862929387566,0.23540126509255319
3.352417787934961,-0.34962317739464,-0.1654218395292052,0.24112877877801434
3.3088806107193127,-0.3533527038907579,-0.15168482789277765,0.2457147992096377
3.2668710272705077,-0.3553975489875363,-0.13802331721131236,0.2494786235386414
3.2262357341127497,-0.3558078304226186,-0.12440567682387613,0.25271173793593416
3.1867398910641778,-0.35468990768934305,-0.11080367119423064,0.2556678950372289
3.148087426658458,-0.3522074765667994,-0.09719311925348909,0.2585581616010343
3.1099572377709834,-0.3485740791712853,-0.08355470589848239,0.2615488826061569
3.0720481871040524,-0.3440375359270189,-0.06987427844861462,0.26476313593496853
3.034122345664155,-0.33885778026691665,-0.05614184973839067,0.2682861519924151
2.996038897339953,-0.3332811547026695,-0.04234961512302491,0.2721723025410278
2.957775904419451,-0.3275157343453551,-0.02849024664464216,0.2764496232867861
2.9194387171552467,-0.3217120104761455,-0.014556243558416367,0.2811199600564402
2.881252851337399,-0.31595184269423937,-0.0005398945132276923,0.2861564814747524
2.8435402915527876,-0.3102478986720157,0.013566875908600983,0.2915021456794753
2.806682411751706,-0.3045550657820503,0.027772625349264897,0.29707161437354107
2.771075766149161,-0.2987927204086927,0.042085688284068584,0.30275614827296066
2.737086054321332,-0.29287347721039175,0.05651247993239737,0.3084294722628461
2.705003290212003,-0.2867320871255851,0.07105575698175408,0.31395427690463323
2.6750020952176916,-0.28034771640830847,0.08571381117323452,0.3191905957852779
2.6471144941508387,-0.27375428249402545,0.10048046434098964,0.3240058090997193
2.621222739394148,-0.2670369287694899,0.11534500955415082,0.3282844023334908
2.5970742078083373,-0.2603159035663121,0.1302916512595444,0.33193716017490804
2.5743138473377574,-0.253720664260925,0.14529899973899757,0.33491200271812266
2.552526578013719,-0.247359143728344,0.160340734429106,0.33720814909818797
2.5312827414040444,-0.24129065477257633,0.17538775856510372,0.33889175064348437
2.510181654097182,-0.2355117204500952,0.1904108093706928,0.3401086526601209
2.4888893815099786,-0.22995940310909493,0.20538244462948702,0.34109054003905537
2.467167216857274,-0.2245296808095062,0.22027852259081465,0.3421510467203452
2.4448886312867435,-0.21910357615748835,0.23507981012775458,0.3436674154892616
2.422044866739899,-0.21357286143899934,0.2497735065643035,0.3460459063260927
2.398741035667131,-0.207859668563707,0.2643537439061101,0.3496753320547561
2.3751843702857136,-0.2019278321060708,0.2788207627458579,0.3548760027321578
2.3516657767096687,-0.19578612741066848,0.29317938960611023,0.3618498055464139
2.3285368699792657,-0.18948464043510127,0.3074372296870154,0.37063600126933716
2.3061853524007527,-0.183105680014883,0.3216025858405037,0.3810783615790277
2.2850100570434684,-0.1767501166440105,0.3356826027558298,0.3928111011643965
2.265395638048828,-0.17051989480247665,0.34968227724097317,0.4052722192606081
2.2476877274987244,-0.16449820563119383,0.3636042036199556,0.4177502548278754
2.2321708347398417,-0.15872988381920794,0.37744851977590715,0.42946036874869775
2.2190520745018993,-0.15320579519126176,0.3912126386387631,0.43963255041959814
2.208453334410822,-0.1478554089423288,0.4048905134291135,0.4475911464210013
2.2004122785538316,-0.14255021178455962,0.41847171167205727,0.4528133956124979
2.1948902601860967,-0.1371175385219845,0.43194094815896866,0.45496351657294115
2.1917843226610647,-0.13136104896902095,0.445278284111328,0.4539021100545763
2.190940298881523,-0.1250827879973764,0.4584598066994419,0.4496733940365011
2.1921639766361958,-0.1181048506784025,0.4714587505382912,0.4424768739620265
2.1952280196701257,-0.11029325258684587,0.48424705583151506,0.4326307325668786
2.199873941230692,-0.10158637109571572,0.49679717953622726,0.42053039932527697
2.2058102776253627,-0.0920250239053112,0.5090838293857307,0.406603275443866
2.212710205161646,-0.08177652576562948,0.5210851592746583,0.3912638019371552
2.220214189680175,-0.0711433060686086,0.5327830101162583,0.3748774016480122
2.227944180759393,-0.06054708468155501,0.5441621332449842,0.35773987383944544
2.235533206385418,-0.05048427092279045,0.5552087713055978,0.34007233947390525
2.2426683373961507,-0.0414580403804639,0.5659090411174352,0.3220289368906856
2.2491389746970487,-0.03390163057636625,0.5762472081236086,0.3037152576878205
2.2548792652318914,-0.028109697654836674,0.5862038120251633,0.2852133985018965
2.2599943577511117,-0.024190468826985292,0.5957539221685167,0.2666049559484077
2.2647645043134603,-0.022044878649526645,0.6048659045816067,0.24798292204351507
2.2696261114853837,-0.021372879614129495,0.6135007327277655,0.2294493050204166
2.275132294661335,-0.021703114633412082,0.6216116741276049,0.2111033191053158
2.2818974373423657,-0.022440580730213502,0.6291444164120634,0.19302875556218468
2.290531835317085,-0.022927011933094765,0.6360379025184908,0.17528532645101502
2.3015736618526406,-0.02250903878671738,0.6422259885300237,0.15790273046414252
2.3154256880074344,-0.02060882006468108,0.6476397407935103,0.14087619863117795
2.3323033140340788,-0.01679064386894856,0.6522099966854024,0.12416731008016527
2.35219918907805,-0.01081554256028669,0.6558697827029032,0.10771522057559088
2.374869391300973,-0.0026752993534467917,0.6585564247601238,0.09145769192797686
2.399846919205691,0.0074018817952173355,0.6602135419625196,0.07535468872438479
2.426487141548229,0.018978965905012204,0.6607931670604786,0.05940703390394051
2.454043297724948,0.031470468248005964,0.6602580301223405,0.04366819511006819
2.4817598782575954,0.04422713811793273,0.6585839417875251,0.02825165644364281
2.5089649512875307,0.056628390490210255,0.6557622402643651,0.013334935933857858
2.5351434074777877,0.06816181592972811,0.6518022580080158,-0.0008423815495628216
2.5599793826058552,0.0784721264028725,0.6467336965360602,-0.013989433726539038
2.583364312985182,0.08737221466010939,0.6406087208389707,-0.025782923796083858
2.605374781862445,0.09482122040019599,0.633503537193776,-0.03589032799474357
2.626229460833371,0.10088178168017857,0.6255191994391842,-0.04399450594441564
2.6462361193584387,0.10566957683644465,0.6167813935326725,-0.04981857159405818
2.6657381999778726,0.10930577907490777,0.6074390081955369,-0.05314929189609911
2.6850673214706577,0.11187983569476982,0.5976614146234177,-0.05385552553905493
2.7045054329448845,0.11342719096231324,0.5876345347353423,-0.05189827189538225
2.724258932668909,0.11392411892879428,0.5775559522669969,-0.047330951678698295
2.7444458972775174,0.11329887475080855,0.5676293862882484,-0.0402909252524408
2.7650960616780536,0.11145490970922298,0.5580587073634574,-0.030984968134560864
2.7861615835124462,0.10829942796655866,0.5490415409742609,-0.01967263624535573
2.8075351455392568,0.10377032498326993,0.540762624306883,-0.006651691084338687
2.8290712300823424,0.09785617309750892,0.5333873218320293,0.007752099265207926
2.850607031791274,0.09060630100198652,0.5270557441643696,0.023191468881711075
2.8719807822461823,0.08213056121990674,0.5218777412082892,0.039302974106988395
2.8930461762606057,0.07259073997107096,0.51792891950486,0.055713391096842355
2.913682144763115,0.06218692198242688,0.5152478951867749,0.07204852302405214
2.933798054376852,0.051141896918714,0.5138351133392227,0.08794605866596067
2.9533355579023186,0.03968540823510575,0.5136536025448944,0.1030746818474017
2.97226910913764,0.028038871434306306,0.5146319222180414,0.11715881476176346
2.990606823280114,0.016400854568223114,0.5166692617685595,0.1300025056077162
3.0083916466543394,0.004934115008099871,0.5196422331482848,0.1415036120367582
3.02570067799784,-0.006244162922215427,0.523412586869742,0.15165375339246007
3.0426399431438984,-0.01706697602635318,0.5278351004430663,0.16052420230038786
3.0593338252404894,-0.02751578426722806,0.53276513161742,0.16823917064527893
3.0759109148495125,-0.0376127548777911,0.5380654292143973,0.17494095243314042
3.0924889555271124,-0.047408425234293755,0.5436116752064393,0.1807567726260813
3.1091608165723943,-0.056966331452136296,0.5492962201725329,0.18577779131268357
3.1259824752558094,-0.06634575229373119,0.5550298302093342,0.19005454818283715
3.1429637403433253,-0.07558428596677777,0.5607417880994873,0.1936057468019204
3.1600630672957246,-0.0846833625603819,0.5663789169441612,0.19643322184100295
3.1771885836125544,-0.09360048642334058,0.5719039280734505,0.19853591036426843
3.1942071627941107,-0.10225126316052915,0.5772932886555406,0.1999189765697559
3.2109618773523407,-0.11052225556335132,0.5825347764705183,0.20059879372229605
3.2272959864405353,-0.1182928875992412,0.5876249513111235,0.2006063935928462
3.2430791759734587,-0.12546172383580845,0.5925667795243816,0.19999035835568835
3.258230165997916,-0.13197034545812297,0.5973675564275132,0.19881836692876317
3.272730456476049,-0.13781778951633677,0.6020371533054131,0.19717647625353646
3.2866266405332203,-0.14306108999339948,0.6065865721794781,0.19516556626464857
3.3000217662416795,-0.1478020264111568,0.6110268146137988,0.1928950537942372
3.3130586125274135,-0.15216428508252247,0.6153680612240754,0.19047535382402075
3.3258990639928405,-0.15626735038143164,0.6196191173320779,0.1880112205692306
3.33870363604356,-0.1602035318530674,0.6237870707614258,0.1855968188484815
3.3516139608484132,-0.16402299448663732,0.6278770802147647,0.18331158843245474
3.3647401005120012,-0.1677291163711522,0.6318921673412414,0.18121591129828218
3.3781544154215766,-0.17128380382600755,0.6358329453438757,0.17934726383788407
3.391893364552653,-0.17462041011858506,0.6396973764631585,0.17771867289431878
3.405967425761187,-0.17766097224596739,0.6434807784908525,0.17632044842117023
3.4203772182213457,-0.1803342900103825,0.6471762754048856,0.1751245398230086
3.4351311399606512,-0.18259169381279788,0.6507756544590975,0.1740900681842793
3.4502582108265734,-0.18441827208179923,0.6542703309231354,0.17316860151562632
3.4658111218042236,-0.18583848955202525,0.6576521298639607,0.17230793478254772
3.481858006301276,-0.1869157624179453,0.6609138529598688,0.17145349771275756
3.4984650255169174,-0.1877457872538695,0.6640497584429218,0.17054764491184318
3.515673916539636,-0.1884439758057383,0.6670559561021123,0.16952897925656013
3.5334788893009663,-0.1891281453580971,0.6699305576353112,0.16833488417489342
3.551806847265093,-0.1898982527286153,0.6726735214578798,0.16690936557069852
3.5705051745072542,-0.19081593428876992,0.6752863564183704,0.1652158359099732
3.5893417917803525,-0.19188846033977155,0.6777718809537796,0.16325094029358456
3.608020948250845,-0.19306297398117822,0.6801340750346849,0.16105214815911348
3.6262145662209506,-0.1942350404989231,0.682377974474081,0.15869358798962035
3.643604670651416,-0.19527081922165446,0.6845096420216877,0.15627245425887662
3.6599298778836853,-0.19603783975386158,0.6865362865220759,0.1538939165348913
3.6750283263958603,-0.1964375844334172,0.6884664039555779,0.15166031592694976
3.6888695652821473,-0.19643316757173668,0.690309658670785,0.1496653832201673
3.7015684940565747,-0.19606604917653764,0.6920764418495443,0.14799162836252475
3.7133763604975623,-0.19545697387851796,0.6937773322023284,0.14670871516713588
3.7246482919453845,-0.19478938858463327,0.6954226118794946,0.14587086790919626
3.735793695888448,-0.19427884853625033,0.6970218166948337,0.14551187520812203
3.7472212973702286,-0.19413686262453106,0.6985833772723347,0.14563765997847838
3.7592904881751297,-0.19453851448841641,0.7001144938852951,0.14621865515465096
3.772276600985337,-0.19559982604816764,0.7016212629335002,0.14718570821159946
3.7863540239275286,-0.19736707152660316,0.7031089774190097,0.1484326803942291
3.801598106296633,-0.19981842068351094,0.7045825900637489,0.14982706506067311
3.8180026884224185,-0.2028765155669548,0.7060473114461641,0.1512271149841178
3.8355060865450885,-0.2064277781409233,0.7075090903177568,0.1525001090150147
3.8540175220253596,-0.21034283197821352,0.7089746048020769,0.15353478871122797
3.8734382768805067,-0.2144939081498858,0.7104506644200544,0.1542453618597779
3.8936743863804213,-0.2187678678352707,0.7119432818757025,0.15457175936900033
3.9146391223396524,-0.22307542489950852,0.7134566730620581,0.15448278725037579
3.9362457112891853,-0.22735752499598239,0.714992269484317,0.15398284668122977
3.958394812373739,-0.2315890363925796,0.7165479119969607,0.15311643275218934
3.980964283464404,-0.23577866698239247,0.7181175420030511,0.15196447435606225
4.003806670630136,-0.23996329081291956,0.7196914851187847,0.15063089998665624
4.026753730307535,-0.24419601011336434,0.7212570657102793,0.14922224644740895
4.0496231543572465,-0.24853022935680252,0.7227993061803519,0.14782648867038134
4.072224133259137,-0.2530043574867398,0.7243017418601224,0.1464990196527573
4.094362436683792,-0.25763164526552906,0.7257474770834347,0.14526141630722508
4.115847248839035,-0.26239778090592386,0.7271205038915521,0.14411186775521942
4.136500496061341,-0.26726636966856454,0.7284072092327862,0.14304041798412365
4.156168236270165,-0.2721896536490796,0.7295978605037039,0.1420422487732668
4.174734466383983,-0.27711975789529153,0.7306876982273962,0.14112554741875621
4.192138255469236,-0.2820159787808156,0.7316773692626883,0.14031295351472522
4.208392694745905,-0.2868461451248435,0.7325727463547436,0.13963676677098344
4.223599853758592,-0.29158298552871803,0.7333842428297407,0.13912896608887712
4.237954541926126,-0.2961983859074456,0.7341256101184255,0.1388087144951277
4.251733120291948,-0.30065937756846667,0.7348123850650823,0.13867250327142397
4.265268528438744,-0.3049290059016424,0.735460420672683,0.13869185487155802
4.278916179791008,-0.3089725010988094,0.7360847437707534,0.13881833690515402
4.293016947750906,-0.3127668004428884,0.7366986663904947,0.13899086148061793
4.307863043828572,-0.31631126649217417,0.7373131767341629,0.1391410970669072
4.323671441060198,-0.31963714634098905,0.7379368023203952,0.13919636501092914
4.340568969601681,-0.32281199892988194,0.738575968180128,0.13908094625967435
4.358591550965458,-0.3259365295531562,0.7392356732819694,0.13871644777177666
4.3776956436517285,-0.32913549197094094,0.7399202632894294,0.13802177967285054
4.397776066862174,-0.33254638063225356,0.7406339407712625,0.1369137511133655
4.418684999916427,-0.3363076226296507,0.7413805115461471,0.13530943386812055
4.44025082502921,-0.34054606263999443,0.742162050937407,0.13313071322144437
4.462298117670516,-0.34536429266006213,0.7429765646085197,0.1303103972129348
4.484669590391154,-0.3508300373455243,0.7438150290233486,0.12679875784854192
4.507248735358047,-0.3569707848959077,0.7446584850008549,0.1225694373609141
4.529980599576831,-0.36377714249785303,0.7454761064474313,0.11762353175901559
4.55288807639766,-0.3712173672693598,0.7462250511796392,0.11199038229295341
4.576080833138246,-0.3792619438853901,0.7468523551322601,0.10572440507596348
4.599753240864618,-0.38791128060122526,0.7472984760514352,0.09889942248831385
4.624168982175168,-0.39721482456044854,0.7475016436090662,0.09160340326414591
4.649634575281964,-0.4072700493199509,0.7474021233512023,0.0839354940963262
4.676468560077783,-0.4181950573031602,0.7469457543103216,0.07600474861332718
4.704973302276186,-0.4300760987821332,0.7460863313626752,0.06792848171086395
4.7354121696109885,-0.4428996115584808,0.7447866157653018,0.05982876602892834
4.767990641528686,-0.4564870115064908,0.7430182007469309,0.051827362522654026
4.802839637778071,-0.47045602861915364,0.7407607942599552,0.044040368209738924
4.840001750918436,-0.4842287414533863,0.7380013083510476,0.03657291204926867
4.8794223722801835,-0.49709183755614195,0.7347327511861703,0.029513191008133773
4.920947051173373,-0.5082962423658495,0.7309528490196542,0.02292628605959976
4.964325449422027,-0.5171703212781319,0.7266626761674312,0.016850029739812825
5.00922246953659,-0.5232166620821666,0.7218658449758462,0.011294950310793073
5.055239675720642,-0.5261668800361528,0.7165685182969481,0.0062482367176804245
5.101953311831415,-0.5259820776218094,0.7107799363142255,0.0016801973208220831
5.148973647607532,-0.5228053402223415,0.7045129739933943,-0.0024478164764433017
5.196020954537177,-0.516887980380877,0.6977845365537652,-0.006174181348720939
5.243000736197446,-0.5085156134398223,0.6906159375085539,-0.009527463321163181
5.290054471734587,-0.49795462014900993,0.6830335357684978,-0.012519135464573084
5.337567439774264,-0.485429576566605,0.675069790802751,-0.015141063615400373
5.386127861620502,-0.4711315380804594,0.6667646989371685,-0.017368235772847268
5.43644405765086,-0.45524811629470036,0.6581674642785578,-0.019164937254327805
5.489235787281691,-0.43800102078942227,0.6493379571322011,-0.02049187226472625
5.545120870486468,-0.4196758640444521,0.640347009754935,-0.02131266476570454
5.604514016257656,-0.4006326445278107,0.6312746657216173,-0.021599214077131456
5.667542701719894,-0.3812925889935115,0.6222064643299094,-0.021335495987577946
5.733977498123837,-0.3621047207751909,0.6132288115537573,-0.020519347631961605
5.8031812004268994,-0.3434995716801497,0.6044244567186206,-0.019162487945258336
5.874093932406635,-0.3258377946120771,0.5958683106711694,-0.01728966974934458
5.945272460291607,-0.3093625204536879,0.587623529214934,-0.014937463705594381
6.0149882248766,-0.2941673619845271,0.5797383371823518,-0.012152686517731014
6.081374283155225,-0.28019115067257894,0.5722444631917879,-0.008990795596992621
6.142605446218811,-0.26724239236231667,0.5651576578715196,-0.005514630773102807
6.197092071549916,-0.25504703966640774,0.5584802318714063,-0.0017931641058748916
6.243660638633669,-0.24330932232825725,0.5522052629658837,0.0021002513378345473
6.281689212148731,-0.23177619470072303,0.5463216832742013,0.00609004023613838
6.311171188048782,-0.2202970306715082,0.5408190048423943,0.010100892240504134
