v_x,v_y,omega,delta
5.170180340144163,-0.10191926412040633,0.13368782358470618,-0.41683918289485666
5.184212538285679,-0.09203317628194124,0.12241410490588087,-0.4165810929580816
5.198179913586365,-0.08204223974503909,0.11101466945210575,-0.4163092508693217
5.212214389225228,-0.07185726481252994,0.09966432369579281,-0.4160290797573026
5.226460099513332,-0.06144862073663363,0.08852404997446416,-0.4157478194168204
5.2410625765532455,-0.03888972152522945,0.07774280339764444,-0.0011736385889741321
5.2561595209623055,-0.029829890879517908,0.06746651587726316,0.005982199251551316
5.271873377779699,-0.02079554627066134,0.05785482760718137,0.012975954655613737
5.288305663899389,-0.011976160203266757,0.04910451394736492,0.01960210610204271
5.3055325383415735,-0.0035576836128898464,0.0414760985364757,0.02571494207423895
5.323602072214025,0.004308606080588397,0.03531709907217837,0.031235027807664108
5.342533911831747,0.011529378787177955,0.031073800073763272,0.036142765351302404
5.36232101081383,0.018081237448416866,0.029284888571622248,0.040462955908381275
5.3829337126632195,0.024009959859427128,0.030553954980652668,0.044244779207556525
5.404327463661679,0.02941794252328506,0.035501456976300964,0.04754193177330209
5.426452615064488,0.0344424409056652,0.04469926449904503,0.050396943618758724
5.449260817427571,0.039228157647965896,0.058592773857594975,0.05283207486653028
5.4727036263949875,0.04389852052133533,0.07741792479208044,0.05484812191679054
5.4967235798431515,0.048530268802111455,0.10112494234481074,0.05643198218831341
5.521240841353446,0.05313556229912661,0.1293263349767668,0.05757094222380836
5.546139505770135,0.05765490907825334,0.16128787980738687,0.058265875183213835
5.571257722753308,0.061962516831066225,0.19597199179388675,0.058534261320008045
5.5963837312027715,0.06588309529436864,0.23212533834183893,0.058402160790385474
5.621257871843289,0.0692166653617976,0.26838961641516923,0.05789347921269681
5.645580847042604,0.07176658549301691,0.30341532179385705,0.05702493108695188
5.669028009511084,0.0733655952865182,0.3359657589775683,0.055808613709500555
5.691267829606982,0.07389544154225088,0.36500275525290976,0.054259456534752185
5.711983836046278,0.07329860696162296,0.3897497972281097,0.052404436674485945
5.730901110186051,0.07158413191728152,0.40973389957898776,0.05029135407299593
5.747815431495848,0.06882976685954423,0.42480717184235095,0.047995325505429925
5.762618738493897,0.06517989421605623,0.43514477187487294,0.045621950624037254
5.77531499638882,0.06083710911311315,0.4412168953942123,0.04330723449925214
5.786023967294154,0.05604674790319295,0.44373753233401736,0.0412143698691841
5.794972382166671,0.05107533527620104,0.44359539035824436,0.039527060605054995
5.8024731823008375,0.046184272748853575,0.44177313120286205,0.0384397677524648
5.808895036578656,0.04160099929253526,0.4392626294299343,0.03814626848056734
5.814625765569039,0.03749241908950273,0.4369846580652622,0.03882776866766389
5.820034775997272,0.03394698202846009,0.4357199507146232,0.04064095779692058
5.825440345811686,0.030969656434832356,0.4360569573037981,0.043706093961696765
5.831086092746744,0.02848964897995669,0.43836139271315655,0.0480952472923772
5.837128391903479,0.02637782547936298,0.44277334007140356,0.05381904719910784
5.843634722497535,0.02446974577738844,0.44923553619056994,0.06080697939703999
5.850591016225149,0.02258911182340887,0.4575474873811033,0.06887821831041897
5.857913479617773,0.02056644607284471,0.46742822036572784,0.07771045420627046
5.865459558129909,0.018250847197728494,0.47856648992978046,0.0868229968350335
5.87303527817296,0.01551609776235141,0.49064524071182186,0.0955872262455201
5.880400034993686,0.012262933115176428,0.5033396207893793,0.1032671190640026
5.887272389346318,0.008417799706886872,0.5162960338657717,0.10908689625182945
5.893340566252179,0.003927925226717033,0.52910196651603,0.11232582606025102
5.8982788784291085,-0.0012455569074916878,0.541256319958683,0.11244279385599462
5.901767871310909,-0.007132227393843393,0.5521507450474822,0.10921398276230673
5.903514730143482,-0.01375095958457262,0.5610731298466015,0.10282552757565731
5.9032719234712365,-0.0211022703416138,0.5672416972583619,0.09385611925197901
5.900853653963215,-0.029158028180501935,0.5698691833526706,0.083149930902141
5.89614990116515,-0.03785377897901607,0.5682430211281936,0.0716488869151473
5.889137471378562,-0.0470879862644306,0.5617997448780575,0.060250262049240506
5.879887671832317,-0.056729023363216155,0.5501775455461441,0.04971137487619093
5.868570915590523,-0.06662655536701009,0.533243241312233,0.04059664986484303
5.855458481881613,-0.0766221722442907,0.5110982713179344,0.03325860503277784
5.840920322325108,-0.08655607139525004,0.4840696742266837,0.027845642961518768
5.825416382499757,-0.09626962408939574,0.4526904124165174,0.024329547731608503
5.809477930687222,-0.10560476862573207,0.41767346631698477,0.02254529113187571
5.793675314538933,-0.11440127708258616,0.379883610613796,0.022236313573771548
5.7785719920507645,-0.12249378329888808,0.34030777182702154,0.023100007323030233
5.764671357601976,-0.12971079742307362,0.30002415691725176,0.024830329262817762
5.752366539712358,-0.13587711686784237,0.2601713982441714,0.027156050575312906
5.7419004953686406,-0.14082018872059227,0.2219172445509134,0.029871509959144303
5.733339109040272,-0.1443797412680152,0.18642568743930682,0.03285240015442603
5.7265580912105,-0.14641824260545633,0.15482383481540804,0.03604963853185674
5.721243883951616,-0.14682929151689383,0.1281691046913774,0.03946390025369272
5.716908437485443,-0.1455426898377483,0.10741411166879877,0.04311253306375965
5.712918984515994,-0.14252759963376585,0.09336737098084781,0.04700017895466484
5.708545007753403,-0.13779706374118786,0.08665089874195946,0.05109907664760455
5.703021233173114,-0.1314160892534912,0.08765651761458754,0.055341938114531884
5.695618312557923,-0.12351150547501191,0.09650381201122553,0.05962866449696953
5.685708153831672,-0.11427832962980296,0.11300724476062468,0.06384409309834815
5.672812651395403,-0.1039772643353368,0.13666346368922397,0.06787817245629564
5.656630791195104,-0.0929210735207722,0.1666664875987161,0.07163940483264722
5.6370457341568825,-0.08145184537288637,0.2019502647408053,0.07506028987720849
5.614117015310182,-0.06991358578948967,0.24125282843784265,0.07810094286706364
5.588062440289965,-0.0586241572269295,0.28319741287880484,0.08075517861097643
5.559233280143526,-0.04784990424195231,0.3263876110644358,0.0830562820343363
5.528086514566074,-0.03778688123792622,0.3695114150931175,0.08507725130926436
5.495155750743327,-0.028552378893011113,0.41144647737648804,0.0869248291177614
5.461019636358301,-0.020188755282273874,0.4513562443707778,0.08873128312790932
5.426268342223598,-0.012679501153036676,0.4887608032530286,0.09064696176530142
5.391471873121246,-0.005974788630239078,0.5235648831494409,0.09283293329892027
5.357152485715026,-2.1112292552596945e-05,0.5560361668317849,0.09545165910114048
5.323760341919974,0.005211128407871302,0.5867420663690527,0.09865495629611083
5.291651073304346,0.009707508130645484,0.6164608184466518,0.10257003310085666
5.261064046917207,0.013401557441441225,0.6460833876514913,0.10728504629840684
5.232101707103247,0.01618195938338135,0.6765205665256915,0.11283569302422698
5.20471598656797,0.017914096176173594,0.7086238032877863,0.11919414170426096
5.178710304594606,0.01847018669208088,0.7431204727619896,0.12626172416688175
5.153759541391278,0.01776021609156203,0.7805614574221651,0.1338680321785298
5.129443617299874,0.015757171549884416,0.8212811332997424,0.1417797489374144
5.105289387810262,0.012511929291326662,0.8653719535709261,0.14971739353992256
5.080815891108027,0.008154121014846138,0.9126767664036343,0.15736794626488093
5.055576926297114,0.0028765633174326344,0.9628001519443578,0.16438146971160505
5.029195917150682,-0.0030962405566233586,1.0151338374283072,0.17035910039302052
5.001390583552353,-0.009550943609000995,1.068888467091084,0.17485800522310743
4.971986146723598,-0.01633176856486529,1.1231302489286932,0.17743296231085914
4.940917323761538,-0.023380864010798114,1.1768267375682189,0.17771075777337508
4.908221686207841,-0.03076267539519839,1.228904073388596,0.1754740578656912
4.8740262435316675,-0.03866576200454605,1.2783144082276223,0.17072401788121727
4.83852733201472,-0.047381777336454434,1.324108347873069,0.16369362456398234
4.801966358436902,-0.05726616263432921,1.3655000807521644,0.15480044188375666
4.764606711189131,-0.06868708913153901,1.4019110215880088,0.14455737221288192
4.726714393533484,-0.0819704120284824,1.432986874029617,0.13348037574817742
4.688541208810648,-0.09734931055280116,1.458591907718322,0.12202348909151431
4.650308973664824,-0.11492691615236597,1.4787854734147583,0.11054892788570934
4.612192581393885,-0.13465876281417521,1.4937858213643593,0.09932666265908323
4.574300034405154,-0.15635848925989276,1.503928800489624,0.08855390847507602
4.536653854492649,-0.17972365839332538,1.509629725705339,0.07838216185293165
4.499183746785121,-0.20437311124623841,1.5113537068958676,0.06893815203541052
4.461736342645069,-0.229887962714323,1.5095949389754495,0.06032887148479998
4.424100471872645,-0.25585131504327296,1.5048610592561773,0.05262892731828681
4.3860432527207145,-0.28188228827667006,1.497657183353561,0.04585781537282411
4.34735001298264,-0.3076610080015386,1.4884661702789401,0.039961913681251696
4.307859115761404,-0.3329436016268856,1.4777244500727196,0.03481460516192214
4.267486190282788,-0.35756655903482526,1.4657947968719482,0.030236098026646924
4.226237724804452,-0.38143993195462345,1.4529389586796697,0.02602332799178314
4.184214945312761,-0.4045316006942896,1.439293534888887,0.02197952752093056
4.141607964851371,-0.4268465798494651,1.424852244732292,0.01793797765465925
4.098679716110789,-0.448404297821161,1.4094575088077324,0.013777909505946966
4.055736919696701,-0.4692168552606133,1.3928023656274386,0.009432194467635898
4.013086687424298,-0.4892726750666072,1.3744401066996303,0.004887563294202149
3.970987454438956,-0.5085289672712099,1.3537976468723079,0.00017813210604502165
3.929610663528567,-0.5269137075038731,1.3301904957202622,-0.004627845041794456
3.889024064101442,-0.5443362462192254,1.3028389116530368,-0.009447355749339541
3.8491966134040037,-0.5607039648232546,1.27088616777709,-0.014203734414875137
3.8100191789634557,-0.5759397778235239,1.233421809444568,-0.018842272270494984
3.77133249149201,-0.5899951953337932,1.189512963520448,-0.023335476368059757
3.7329533732795914,-0.6028560822736038,1.1382463601665576,-0.027678231340669112
3.6946962248158184,-0.6145391792161266,1.078785966954441,-0.0318765878508698
3.656393207404805,-0.6250780635754706,1.0104502129788115,-0.03593502804520623
3.6179150679358436,-0.6345007022702804,0.9328038509409236,-0.03984697603808623
3.579189985178351,-0.6428043948513852,0.8457512687611491,-0.04359228018452581
3.5402164208475573,-0.6499342268613059,0.7496161067989944,-0.047141990486557504
3.5010647972500393,-0.6557693400540515,0.6451912618122508,-0.05046539987097924
3.461863475962168,-0.6601195287080366,0.533747824910334,-0.053532764308019225
3.4227723762075484,-0.662733212431289,0.4170065519451579,-0.056312204066685786
3.383955277300431,-0.6633167576645902,0.2970841844993173,-0.05876422239652516
3.3455595778508593,-0.6615641957807784,0.17641722755025974,-0.06083732937454607
3.3077055790955914,-0.6571944745559647,0.05765779213938352,-0.062467101613846464
3.270483857669793,-0.6499904652794132,-0.05645737514425048,-0.06357976779852201
3.233957237630675,-0.639832448178575,-0.16325847888451114,-0.06409805292069172
3.1981640831176326,-0.6267208917665941,-0.26030734110264964,-0.06394542104963358
3.163124361897407,-0.6107875427150773,-0.34555646081331415,-0.06304885166992445
3.1288523953859433,-0.592295937669484,-0.4174726324846296,-0.061344432869320516
3.0953756652050477,-0.5716315033703925,-0.47510310390034194,-0.05878760404370979
3.062753848744775,-0.5492811580188389,-0.5180817279525244,-0.05536339916376419
3.031090875188998,-0.5258033687156595,-0.5465850132777913,-0.05108971860724198
3.0005330604140137,-0.5017893770137501,-0.5612519412112419,-0.04601126702427258
2.971250077354022,-0.4778174436925056,-0.5630833149841079,-0.04018789884177968
2.943404349975251,-0.45440700408298257,-0.5533359805136276,-0.033683966418745374
2.9171201731362153,-0.4319822343728232,-0.533424350200355,-0.026564977036774965
2.8924602557878454,-0.41084997985130034,-0.504837611400891,-0.01890376259760335
2.8694114800027033,-0.39119133208519474,-0.46907616841584754,-0.010790802785310125
2.8478799824924903,-0.3730646980658682,-0.42760642646940333,-0.0023388156168309424
2.827694829216324,-0.35641778344336783,-0.38182795648661044,0.006324951772985992
2.8086180462622234,-0.3411047739485796,-0.3330428243151942,0.015077699241626623
2.7903599145189872,-0.3269061782635665,-0.2824204775262513,0.023823735094854522
2.7726002326726067,-0.3135512599746376,-0.23096070435064656,0.032510621469042475
2.7550146045509427,-0.3007430707784478,-0.1794615046946792,0.04113107338026377
2.7373019443944036,-0.2881848585135955,-0.12849928847099934,0.049708594995891926
2.7192084573558124,-0.2756060810037285,-0.0784290920980213,0.05827229306589435
2.7005438249169216,-0.26278542529689974,-0.02940639857817155,0.06683413434865758
2.681187590960895,-0.2495675961452564,0.018577370114645917,0.07538167822892794
2.6610879324050356,-0.2358721331660766,0.06565424024534317,0.08388618410691384
2.6402571981666667,-0.22169472950843327,0.112036798207843,0.09231358784685315
2.618766592887773,-0.20710209175006464,0.1579745000706072,0.1006283626154837
2.5967396400545146,-0.19222124548185726,0.20371144848769238,0.10879123574272732
2.574342971290118,-0.17722434289035416,0.2494464221404775,0.11675706940534522
2.5517725534375573,-0.1623097140193001,0.2952967270452189,0.12447653604952784
2.5292349868195836,-0.14768031662375614,0.34126996437505286,0.13190094932930616
2.5069276899270028,-0.13352289474961138,0.3872459460959587,0.13898739896674045
2.485023589533365,-0.11999206249545334,0.43296834910690585,0.14570073130823993
2.4636625937945245,-0.10720125032188174,0.4780480613997574,0.1520115440540025
2.4429485928697114,-0.09521981755175622,0.5219823702273403,0.15789526795652042
2.422950179238159,-0.08407488049856952,0.5641917481320874,0.1633383111859355
2.4037028408525916,-0.07375630211276389,0.6040730873886611,0.16834862927130992
2.385210041851763,-0.0642232676036612,0.6410651214319444,0.17296105135713924
2.367443329613158,-0.05541173864721388,0.6747156842829534,0.17723223794886314
2.3503445009789155,-0.04724295679717648,0.7047366792503932,0.18122894972133463
2.333831548289272,-0.03963282587391856,0.7310368933153366,0.1850157308061254
2.317807347394503,-0.03250128862010701,0.7537306109706721,0.18864529859242457
2.3021693979348115,-0.025780618325846133,0.7731245119062333,0.1921535407990299
2.286818673534876,-0.019421227235681654,0.7896867978101493,0.1955621852371835
2.271665440954916,-0.013393249803359042,0.8040035179159646,0.19889020719298514
2.256632053026316,-0.0076830844770537365,0.8167280005401857,0.20216781747464896
2.241655159900384,-0.0022859311699536533,0.8285299710901651,0.20544279519449588
2.226689000267202,0.0028034958224973094,0.8400497978418886,0.20877343747825788
2.211709181082003,0.0075997401221139654,0.8518592286206238,0.2122095209130855
2.19671530418726,0.012132932557182924,0.8644269068130183,0.21576865280753396
2.1817305811514873,0.016451650278991897,0.8780887121467518,0.2194209748428854
2.1667976744795014,0.02062199645152475,0.8930263085040409,0.22309307295468847
2.151972718778403,0.024722908993922835,0.9092576152149873,0.22668797606133437
2.137320506361914,0.028838530679782537,0.9266413889221219,0.2301069899805205
2.1229113726814512,0.033049631923563,0.9448968637041718,0.2332634736462785
2.1088180073144454,0.03742618205639253,0.9636371367344154,0.23608927716219524
2.0951109488847726,0.04202203901609988,0.9824121710312083,0.23853801927902657
2.081852593209181,0.046871648667991206,1.000756540708726,0.24058554901682214
2.0690898030726257,0.05198810012229664,1.0182362039507786,0.2422243172158973
2.0568464478720787,0.057361313454253715,1.0344853404949401,0.2434511839984601
2.045118585967388,0.0629550896219587,1.0492239305990974,0.24425613854512265
2.033873951182354,0.06870328104433235,1.0622536306223138,0.24462183635738355
2.0230552606003265,0.07450735382176603,1.0734387738655218,0.24453467837033743
2.0125860750621976,0.0802380723443725,1.082684265502283,0.2439984853025903
2.002377734709025,0.08574289182067828,1.0899213773222647,0.2430427801136101
1.992335800306525,0.09085887500157198,1.095107283539236,0.2417230582213144
1.9823657622343098,0.09542894134266103,1.0982362905876146,0.240113090745949
1.9723793465194348,0.0993179689176886,1.0993543747465184,0.23829281698358826
1.962302184389475,0.10242579793619493,1.0985682030434536,0.2363377746998151
1.9520817979483809,0.10469562686405073,1.096043774538506,0.23431083090975907
1.9416937087316644,0.10611714636378093,1.0919931903567772,0.23225212092399172
1.9311433864942482,0.10672430757964729,1.086649592726777,0.2301686243893643
1.9204632824571926,0.10658854886425108,1.0802328061617161,0.22803138965922395
1.9097069490852163,0.1058090763991257,1.0729127049320275,0.22578369274063867
1.8989433280222585,0.10450182533297009,1.0647801135573483,0.22335385653124273
1.8882523563065392,0.10278829486736143,1.0558325060322302,0.22066619304862078
1.8777208657868476,0.10078514024434515,1.0459762135829616,0.2176526091045656
1.8674375925388207,0.09859534318262075,1.0350431098672008,0.2142708946011027
1.8574868122701458,0.09630152282034356,1.0228187453598745,0.2105261591276663
1.847940829725721,0.09396150204252307,1.0090788289554506,0.20648333391879264
1.8388528533792097,0.09160624485298555,0.9936307718228893,0.20226482576720317
1.8302524287126711,0.08924059059473693,0.9763564757549597,0.19803999756894386
1.8221441750639473,0.08684714089002273,0.9572521804675919,0.19401772259146394
1.814508850190386,0.08439322451570583,0.9364622647143257,0.19044878725193087
1.807305631861308,0.08184031427116015,0.9143057687556834,0.18763620070099032
1.8004750988943992,0.07915479926427225,0.89129468799265,0.18594147064716607
1.793942996042038,0.07631912259346366,0.8681422873566487,0.18577085409608327
1.7876256893037101,0.07334265601617893,0.8457590695348255,0.18753465777255213
1.7814381407732398,0.07027128221898134,0.8252317393720003,0.1915886169540635
1.775303714049636,0.06719392695333434,0.8077782994631594,0.19817422763219655
1.7691640644166102,0.06424457274487376,0.7946764064689563,0.20737025506317308
1.7629877333434791,0.061599260684289094,0.7871703357935906,0.21906115455056155
1.756776530796581,0.059467989886831975,0.7863660828857545,0.23292818188387543
1.7505689372308932,0.058081647514859294,0.7931246901917726,0.24846966681563024
1.7444403611282706,0.05767522821078078,0.8079665002989365,0.26504866248911735
1.7385006165921206,0.058469856378098345,0.8310016999800156,0.2819526363937181
1.7328885637094589,0.060655922887065894,0.8618991541573728,0.29844630639089254
1.7277632717101175,0.06437830836025121,0.8998961284057433,0.3138098602947861
1.723291246598827,0.06972388499307529,0.9438434110656284,0.32736666144883503
1.7196300917053857,0.07671164510085346,0.9922786552996524,0.3385065560028775
1.7169104026352342,0.0852856146201953,1.0435194777432912,0.34670893892993304
1.7152191206995537,0.09530983286792097,1.0957622688603879,0.3515696226313713
1.7145874775931298,0.10656492064571342,1.1471719456826786,0.3528327307209678
1.714985199534848,0.118748109201675,1.1959570891634208,0.3504205157120998
1.7163215093441375,0.13148073927603054,1.2404328174218962,0.34444681964280616
1.7184530741356914,0.14432654585825797,1.2790743989250586,0.3352034560855668
