v_x,v_y,omega,delta
3.293080308995148,-0.15011840615278277,0.0,0.0,0.0
3.30242220404567,-0.15578551489246256,0.0,0.0,0.0
3.311750866452478,-0.16133045896293627,0.0,0.0,0.0
3.3212401325571776,-0.16659649382315364,0.0,0.0,0.0
3.3310160815170424,-0.17143141891972105,0.0,0.0,0.0
3.3411451603129483,-0.17569705253379395,0.0,0.0,0.0
3.351637693861946,-0.1792833616215938,0.0,0.0,0.0
3.362463311749508,-0.18212257016594935,0.0,0.0,0.0
3.373573653169071,-0.1841981050690902,0.0,0.0,0.0
3.384927166136105,-0.18554498625555965,0.0,0.0,0.0
3.396510622688029,-0.1862411399973174,0.0,0.0,0.0
3.4083524567578816,-0.18639199337128645,0.0,0.0,0.0
3.420524505588373,-0.18611285876949746,0.0,0.0,0.0
3.4331310057068203,-0.18551443454864203,0.0,0.0,0.0
3.446286130296053,-0.18469586597615528,0.0,0.0,0.0
3.4600839527748586,-0.18374695531642943,0.0,0.0,0.0
3.47456727852494,-0.18275677524727313,0.0,0.0,0.0
3.489702723826189,-0.18182252439007116,0.0,0.0,0.0
3.5053678968030777,-0.1810523366452807,0.0,0.0,0.0
3.5213535806133476,-0.18055867913200824,0.0,0.0,0.0
3.5373804792128984,-0.18044323969602966,0.0,0.0,0.0
3.5531273342776366,-0.18077804808774386,0.0,0.0,0.0
3.568265955178725,-0.18158921707332593,0.0,0.0,0.0
3.582498247776675,-0.18284871710572329,0.0,0.0,0.0
3.595590102453986,-0.184477081734205,0.0,0.0,0.0
3.607397765729997,-0.18635675517685335,0.0,0.0,0.0
3.61788382168799,-0.18835283654723564,0.0,0.0,0.0
3.6271212231822223,-0.19033625006201405,0.0,0.0,0.0
3.6352850786756994,-0.1922037565624122,0.0,0.0,0.0
3.6426333257663783,-0.1938895240435653,0.0,0.0,0.0
3.649478847664283,-0.19536530263105245,0.0,0.0,0.0
3.656156790507145,-0.19663071314553862,0.0,0.0,0.0
3.662991063766012,-0.19769901241179733,0.0,0.0,0.0
3.670262899779684,-0.1985843512532813,0.0,0.0,0.0
3.6781832224955244,-0.1992944335077677,0.0,0.0,0.0
3.686870936813069,-0.1998295791148333,0.0,0.0,0.0
3.6963405063803245,-0.20018691072517625,0.0,0.0,0.0
3.70650232705276,-0.2003672937411439,0.0,0.0,0.0
3.7171777341704013,-0.20038237425145794,0.0,0.0,0.0
3.7281280362833296,-0.20025879286767329,0.0,0.0,0.0
3.739094326942195,-0.20003683322929622,0.0,0.0,0.0
3.749841843998981,-0.19976275275663127,0.0,0.0,0.0
3.7602001102896403,-0.19947741026559096,0.0,0.0,0.0
3.7700896148905714,-0.19920594128852295,0.0,0.0,0.0
3.7795285130121914,-0.19895251907862424,0.0,0.0,0.0
3.788618423940647,-0.19870165558445238,0.0,0.0,0.0
3.79751447283676,-0.1984249535147736,0.0,0.0,0.0
3.806388187893539,-0.19809081429380307,0.0,0.0,0.0
3.815392018853592,-0.1976742439516463,0.0,0.0,0.0
3.824632656194387,-0.19716405963425734,0.0,0.0,0.0
3.8341577841778514,-0.1965655951510876,0.0,0.0,0.0
3.843957039663237,-0.19589859826775405,0.0,0.0,0.0
3.8539738790325058,-0.19519154230857202,0.0,0.0,0.0
3.8641229453221446,-0.19447424434717941,0.0,0.0,0.0
3.8743078507492936,-0.19377087225024273,0.0,0.0,0.0
3.8844360265297873,-0.1930955630670962,0.0,0.0,0.0
3.8944293567716346,-0.192452431747706,0.0,0.0,0.0
3.904230573773755,-0.19184010029619752,0.0,0.0,0.0
3.913805438391726,-0.19125860097777903,0.0,0.0,0.0
3.9231405685274456,-0.1907152568159066,0.0,0.0,0.0
3.9322374660702195,-0.19022716442215643,0.0,0.0,0.0
3.9411045485317473,-0.189820442264785,0.0,0.0,0.0
3.949749388473011,-0.18952805413888119,0.0,0.0,0.0
3.9581721137888057,-0.18938755086455294,0.0,0.0,0.0
3.9663596570414743,-0.18943884500213615,0.0,0.0,0.0
3.9742814495264343,-0.18972177908759172,0.0,0.0,0.0
3.98188916622036,-0.19027368347622928,0.0,0.0,0.0
3.98912280698275,-0.1911275143781256,0.0,0.0,0.0
3.995922100026723,-0.19231121241452323,0.0,0.0,0.0
4.0022392184312405,-0.19384851889267735,0.0,0.0,0.0
4.008048655534986,-0.19576058526850992,0.0,0.0,0.0
4.013351972104246,-0.19806680399841403,0.0,0.0,0.0
4.0181771114614415,-0.2007830431696279,0.0,0.0,0.0
4.022573237096868,-0.2039161114477356,0.0,0.0,0.0
4.026602524276501,-0.207454688642223,0.0,0.0,0.0
4.030330280149524,-0.21135873136908429,0.0,0.0,0.0
4.033814707009591,-0.21555059543649524,0.0,0.0,0.0
4.0370980442440265,-0.21991104508345838,0.0,0.0,0.0
4.040201404276833,-0.22428242597090056,0.0,0.0,0.0
4.0431250535629975,-0.22848045979030054,0.0,0.0,0.0
4.045853484115091,-0.23231495394466664,0.0,0.0,0.0
4.048361971949375,-0.23561700531474442,0.0,0.0,0.0
4.050620740552155,-0.23826646293694229,0.0,0.0,0.0
4.052594459993617,-0.24021139476745357,0.0,0.0,0.0
4.0542372868008085,-0.24147358053484985,0.0,0.0,0.0
4.055486495478504,-0.242139478731253,0.0,0.0,0.0
4.056260370222418,-0.2423408948466509,0.0,0.0,0.0
4.05646610746534,-0.24223157479557522,0.0,0.0,0.0
4.056019057118392,-0.2419660852515022,0.0,0.0,0.0
4.054867600459611,-0.241686348681047,0.0,0.0,0.0
4.053013312929037,-0.24151827005688503,0.0,0.0,0.0
4.050516472117425,-0.2415763640817606,0.0,0.0,0.0
4.047481027226259,-0.24197036941796204,0.0,0.0,0.0
4.044019746992366,-0.24280687816359472,0.0,0.0,0.0
4.040209254082812,-0.24418232423674482,0.0,0.0,0.0
4.036051809048284,-0.24616958418088136,0.0,0.0,0.0
4.031459637266359,-0.2488043902349308,0.0,0.0,0.0
4.026268333723279,-0.252077062347757,0.0,0.0,0.0
4.02027516919559,-0.2559314330107205,0.0,0.0,0.0
4.01329162930928,-0.26026948625327423,0.0,0.0,0.0
4.00519799815683,-0.26495908130586404,0.0,0.0,0.0
3.9959887040897586,-0.26984292789102365,0.0,0.0,0.0
3.985798351842874,-0.27474822578667896,0.0,0.0,0.0
3.974900997098713,-0.27949735143367865,0.0,0.0,0.0
3.9636811401419934,-0.2839202790187815,0.0,0.0,0.0
3.9525822656565803,-0.2878680892755787,0.0,0.0,0.0
3.9420440703642683,-0.29122438102182785,0.0,0.0,0.0
3.932442072209105,-0.29390997780939127,0.0,0.0,0.0
3.9240428371836322,-0.29587780999012364,0.0,0.0,0.0
3.916983292953491,-0.2970991506583691,0.0,0.0,0.0
3.9112753134739835,-0.2975471953212996,0.0,0.0,0.0
3.9068311900975523,-0.2971859118352119,0.0,0.0,0.0
3.9035026824421357,-0.29596954132001435,0.0,0.0,0.0
3.901123919354126,-0.29385277061890663,0.0,0.0,0.0
3.899546624858638,-0.2908072018583493,0.0,0.0,0.0
3.8986579076543157,-0.28683890792944355,0.0,0.0,0.0
3.898377558034072,-0.2820035285330301,0.0,0.0,0.0
3.8986409858382363,-0.2764168140946464,0.0,0.0,0.0
3.8993798971433895,-0.2702586331894397,0.0,0.0,0.0
3.9005109270247664,-0.2637681145533996,0.0,0.0,0.0
3.9019353077496937,-0.25722799228676957,0.0,0.0,0.0
3.9035472251142433,-0.2509376308839858,0.0,0.0,0.0
3.905247229052712,-0.24517701977076356,0.0,0.0,0.0
3.906957267282247,-0.24016834137867862,0.0,0.0,0.0
3.9086337599611984,-0.23604494762938602,0.0,0.0,0.0
3.9102754376272673,-0.232836458457047,0.0,0.0,0.0
3.911924423822543,-0.23047322673094287,0.0,0.0,0.0
3.91366141980406,-0.22880664252746916,0.0,0.0,0.0
3.915597342845935,-0.22763731173635993,0.0,0.0,0.0
3.9178643802096316,-0.22674306723999832,0.0,0.0,0.0
3.9206095020744574,-0.22590217908244117,0.0,0.0,0.0
3.923992142903952,-0.2249111311636649,0.0,0.0,0.0
3.928184719402142,-0.2235983746261556,0.0,0.0,0.0
3.9333715788244974,-0.22183519379624672,0.0,0.0,0.0
3.93974094265726,-0.21954393533710442,0.0,0.0,0.0
3.9474664080500657,-0.21670373770678392,0.0,0.0,0.0
3.9566788878537786,-0.21335383003343755,0.0,0.0,0.0
3.9674343814473962,-0.20959330329992445,0.0,0.0,0.0
3.9796857806594748,-0.20557471876976974,0.0,0.0,0.0
3.9932669381339894,-0.2014888309034984,0.0,0.0,0.0
4.007893825955946,-0.19754002350252847,0.0,0.0,0.0
4.0231821077788235,-0.19391601179610476,0.0,0.0,0.0
4.038676246130101,-0.19075866216395096,0.0,0.0,0.0
4.053884651072971,-0.1881432792469932,0.0,0.0,0.0
4.068317463337372,-0.18607124753716578,0.0,0.0,0.0
4.081525587293475,-0.1844770345737634,0.0,0.0,0.0
4.093139433782868,-0.1832467003508045,0.0,0.0,0.0
4.10290376789197,-0.18224194052127357,0.0,0.0,0.0
4.1107035039577235,-0.18132244751495116,0.0,0.0,0.0
4.1165764168238015,-0.18036132280716757,0.0,0.0,0.0
4.120712048030547,-0.17925258561622454,0.0,0.0,0.0
4.123439061869846,-0.17791332252465603,0.0,0.0,0.0
4.125204185099036,-0.1762835672478036,0.0,0.0,0.0
4.1265449555304565,-0.1743256466359981,0.0,0.0,0.0
4.128056977565961,-0.17202385810159418,0.0,0.0,0.0
4.130355182853008,-0.16938567699490534,0.0,0.0,0.0
4.134028825343556,-0.1664459293119155,0.0,0.0,0.0
4.139592068306399,-0.16327435220217987,0.0,0.0,0.0
4.147434719685507,-0.15998498546888423,0.0,0.0,0.0
4.157779497318099,-0.15674373837933944,0.0,0.0,0.0
4.170653246093271,-0.15376880865991388,0.0,0.0,0.0
4.185879735653343,-0.15131807461202126,0.0,0.0,0.0
4.203099040894441,-0.14965978853655665,0.0,0.0,0.0
4.221811873442419,-0.14902888289330765,0.0,0.0,0.0
4.241440234295683,-0.14957816612037886,0.0,0.0,0.0
4.261393204369632,-0.1513370630189053,0.0,0.0,0.0
4.281128177416281,-0.15418899238211423,0.0,0.0,0.0
4.300200311872272,-0.1578735740073705,0.0,0.0,0.0
4.318295870334699,-0.1620133995428539,0.0,0.0,0.0
4.335248758089597,-0.16615881884832093,0.0,0.0,0.0
4.3510424440223945,-0.16984035158336944,0.0,0.0,0.0
4.365799871786707,-0.17261864961098425,0.0,0.0,0.0
4.379762612593366,-0.17412559861503943,0.0,0.0,0.0
4.393259484919262,-0.17409420670301184,0.0,0.0,0.0
4.4066656428340645,-0.17237702253861295,0.0,0.0,0.0
4.420355830945011,-0.16895291995397319,0.0,0.0,0.0
4.4346584612281115,-0.16392193962412008,0.0,0.0,0.0
4.449818059353191,-0.15748888131249295,0.0,0.0,0.0
4.465971987105851,-0.1499379801635832,0.0,0.0,0.0
4.483144261259586,-0.14160204727458955,0.0,0.0,0.0
4.501255226885621,-0.13282972828164932,0.0,0.0,0.0
4.520141177153126,-0.1239544337991641,0.0,0.0,0.0
4.539574662726357,-0.11526802270312529,0.0,0.0,0.0
4.559276425640657,-0.10700152159045684,0.0,0.0,0.0
4.578914002368795,-0.09931431172963562,0.0,0.0,0.0
4.598088756084406,-0.09229228892732085,0.0,0.0,0.0
4.616319958545951,-0.0859544875544637,0.0,0.0,0.0
4.633038070045985,-0.0802668964336052,0.0,0.0,0.0
4.647597231840426,-0.07516182222690666,0.0,0.0,0.0
4.659310065641149,-0.07056070990166544,0.0,0.0,0.0
4.667499365989194,-0.0663973249379561,0.0,0.0,0.0
4.671555344737122,-0.06263703576957909,0.0,0.0,0.0
4.6709866498772845,-0.05928770495510216,0.0,0.0,0.0
4.665457112262676,-0.05639916510376419,0.0,0.0,0.0
4.6548046984249645,-0.05405142416662407,0.0,0.0,0.0
4.6390429213108755,-0.05233556673055087,0.0,0.0,0.0
4.618347226030768,-0.0513334680886203,0.0,0.0,0.0
4.593029350414697,-0.051101230015614056,0.0,0.0,0.0
4.563502870598466,-0.05165800658672282,0.0,0.0,0.0
4.530243733831478,-0.05297960973576971,0.0,0.0,0.0
4.493749825250228,-0.05499611812462434,0.0,0.0,0.0
4.45450418328339,-0.05759337771135234,0.0,0.0,0.0
4.412947199596697,-0.06061862374620765,0.0,0.0,0.0
4.369461627090171,-0.06389061942546521,0.0,0.0,0.0
4.324370714524244,-0.06721471158134965,0.0,0.0,0.0
4.277947074346112,-0.07040225088446952,0.0,0.0,0.0
4.230427631828054,-0.07329182724951365,0.0,0.0,0.0
4.18202718756972,-0.07576843320135412,0.0,0.0,0.0
4.13294379331855,-0.07777736846179913,0.0,0.0,0.0
4.083355880219057,-0.07933121645144538,0.0,0.0,0.0
4.033417640396063,-0.08050869891631966,0.0,0.0,0.0
3.9832583783442477,-0.08144393674412921,0.0,0.0,0.0
3.9329856613523972,-0.08230529878106817,0.0,0.0,0.0
3.882689150064125,-0.08326551715659196,0.0,0.0,0.0
3.8324439564598274,-0.08446826835119328,0.0,0.0,0.0
3.782313825775146,-0.08599887700477854,0.0,0.0,0.0
3.732353252084785,-0.08786636021526928,0.0,0.0,0.0
3.6826069337436667,-0.090000827200517,0.0,0.0,0.0
3.633105774434773,-0.09226631142160044,0.0,0.0,0.0
3.583860044603109,-0.09448604498991593,0.0,0.0,0.0
3.534852346679914,-0.09647499561515059,0.0,0.0,0.0
3.486034456563305,-0.09807291740614409,0.0,0.0,0.0
3.437331014073669,-0.09917072324342688,0.0,0.0,0.0
3.3886501396790467,-0.09972468744425694,0.0,0.0,0.0
3.339898831694311,-0.09975710241142104,0.0,0.0,0.0
3.2910001091780363,-0.09934649040978588,0.0,0.0,0.0
3.241908627159963,-0.09861242690475715,0.0,0.0,0.0
3.192622474792827,-0.09769911061272751,0.0,0.0,0.0
3.1431911471041567,-0.09675986104195215,0.0,0.0,0.0
3.093721012479047,-0.09594319176107921,0.0,0.0,0.0
3.0443780914999943,-0.09538032260026885,0.0,0.0,0.0
2.995384734995821,-0.09517365006742018,0.0,0.0,0.0
2.947006274456391,-0.09538576323867973,0.0,0.0,0.0
2.899528745848928,-0.09602951859362455,0.0,0.0,0.0
2.853234628977294,-0.09706127380172527,0.0,0.0,0.0
2.8083835005940663,-0.09838062526233778,0.0,0.0,0.0
2.7651990574432324,-0.09983991814025078,0.0,0.0,0.0
2.723858978775561,-0.10126463953640442,0.0,0.0,0.0
2.684483952868225,-0.1024816860505952,0.0,0.0,0.0
2.6471261584356314,-0.1033485090035781,0.0,0.0,0.0
2.6117612453977777,-0.10377508420106482,0.0,0.0,0.0
2.578288397037755,-0.10373310727493827,0.0,0.0,0.0
2.546540608048958,-0.10325076355932097,0.0,0.0,0.0
2.516303886341848,-0.10239493664577247,0.0,0.0,0.0
2.4873416942670343,-0.10124561708260214,0.0,0.0,0.0
2.459420123889401,-0.09986956740607213,0.0,0.0,0.0
2.432329458618396,-0.09830086110273444,0.0,0.0,0.0
2.4058988019543395,-0.09653373535880741,0.0,0.0,0.0
2.380002669845194,-0.09452879419822581,0.0,0.0,0.0
2.3545611409812475,-0.09222910510847096,0.0,0.0,0.0
2.329536724535657,-0.08958063867882031,0.0,0.0,0.0
2.3049306283121735,-0.08655231974503978,0.0,0.0,0.0
2.2807790418137452,-0.08315284255392696,0.0,0.0,0.0
2.2571478786153207,-0.07944248035316281,0.0,0.0,0.0
2.234123914192309,-0.07553819703438644,0.0,0.0,0.0
2.2118018365296797,-0.07161029850504669,0.0,0.0,0.0
2.1902689953338768,-0.06786935513481819,0.0,0.0,0.0
2.1695909914146476,-0.06454341561878223,0.0,0.0,0.0
2.149801126357723,-0.06184749999032052,0.0,0.0,0.0
2.1308955245405405,-0.059950036349627915,0.0,0.0,0.0
2.112834295625335,-0.058943947992857536,0.0,0.0,0.0
2.0955479406690745,-0.05883121773391314,0.0,0.0,0.0
2.0789471880599004,-0.059526530511306526,0.0,0.0,0.0
2.0629337136963617,-0.060879148984410304,0.0,0.0,0.0
2.0474095222653976,-0.06270632699124647,0.0,0.0,0.0
2.03228418028881,-0.06482913374999041,0.0,0.0,0.0
2.017480287169085,-0.06710261860955158,0.0,0.0,0.0
2.002937520638478,-0.06943477377313147,0.0,0.0,0.0
1.988614992644302,-0.07179101857718874,0.0,0.0,0.0
1.97449177340722,-0.07418347441436524,0.0,0.0,0.0
1.9605661092859448,-0.07664841970804621,0.0,0.0,0.0
1.9468539019719036,-0.07921947846380059,0.0,0.0,0.0
1.9333862599238751,-0.08190469979169039,0.0,0.0,0.0
1.9202054603438699,-0.08467227673402387,0.0,0.0,0.0
1.9073592587458201,-0.08744591727661916,0.0,0.0,0.0
1.8948945717647419,-0.09010959699543218,0.0,0.0,0.0
1.8828520311205936,-0.0925215670589785,0.0,0.0,0.0
1.8712626976359652,-0.09453679552212228,0.0,0.0,0.0
1.8601477880773125,-0.09603500404161584,0.0,0.0,0.0
1.8495212069760467,-0.0969494504101753,0.0,0.0,0.0
1.8393930155283547,-0.09729089367687092,0.0,0.0,0.0
1.8297711326054842,-0.09716157237056784,0.0,0.0,0.0
1.8206595227202527,-0.09675463960301059,0.0,0.0,0.0
1.8120535174540215,-0.09633573456364874,0.0,0.0,0.0
1.8039352575632817,-0.09620656033165069,0.0,0.0,0.0
1.7962723132273088,-0.09665523632468709,0.0,0.0,0.0
1.7890198988730601,-0.09790234219558576,0.0,0.0,0.0
1.7821244419452607,-0.10005300253429623,0.0,0.0,0.0
1.7755262236830922,-0.10306457154198634,0.0,0.0,0.0
1.7691607182392106,-0.10673746656728046,0.0,0.0,0.0
1.762959627526606,-0.1107332052634931,0.0,0.0,0.0
1.7568527114271852,-0.11461840749194906,0.0,0.0,0.0
1.7507713994393332,-0.11792743140351927,0.0,0.0,0.0
1.7446548754619338,-0.12023192286095537,0.0,0.0,0.0
1.7384579068788883,-0.12120486216288705,0.0,0.0,0.0
1.732157855059748,-0.12066842796531264,0.0,0.0,0.0
1.7257580879965344,-0.11861681346992002,0.0,0.0,0.0
1.7192867269738197,-0.11520840730477382,0.0,0.0,0.0
1.712791528975434,-0.11072943882543064,0.0,0.0,0.0
1.7063323924576257,-0.10554023906699866,0.0,0.0,0.0
1.6999728632746647,-0.10001846658148898,0.0,0.0,0.0
1.6937718889809366,-0.09451039554805468,0.0,0.0,0.0
1.6877766399959333,-0.08929736073598325,0.0,0.0,0.0
1.682016566828925,-0.08458113055760139,0.0,0.0,0.0
1.6764992737036823,-0.08048686906138336,0.0,0.0,0.0
1.671209799967703,-0.07707723995146344,0.0,0.0,0.0
1.666114291159024,-0.07437020288048984,0.0,0.0,0.0
1.6611669314363826,-0.0723557054391705,0.0,0.0,0.0
1.6563178011717932,-0.07100914512758394,0.0,0.0,0.0
1.6515200299752621,-0.0703004580466867,0.0,0.0,0.0
1.646736087426401,-0.07019790076711997,0.0,0.0,0.0
1.6419440152090017,-0.0706661941830238,0.0,0.0,0.0
1.6371444752006015,-0.07165998020022843,0.0,0.0,0.0
1.6323684769509024,-0.07311548745022209,0.0,0.0,0.0
1.6276837528309578,-0.07494510747728499,0.0,0.0,0.0
1.6231967013156656,-0.07703919680465302,0.0,0.0,0.0
1.6190482589195079,-0.07927599932628634,0.0,0.0,0.0
1.615404717329149,-0.08153627909362701,0.0,0.0,0.0
1.6124459302409861,-0.08371697832356625,0.0,0.0,0.0
1.6103532665410896,-0.08573898306630989,0.0,0.0,0.0
1.6092989631187515,-0.08754681639330794,0.0,0.0,0.0
1.609437383927772,-0.08910095169493108,0.0,0.0,0.0
1.610897303066001,-0.09036555469165598,0.0,0.0,0.0
1.6137737509602272,-0.09129602178344634,0.0,0.0,0.0
1.618118968573088,-0.09183128188596436,0.0,0.0,0.0
1.623933805353503,-0.09189453057536431,0.0,0.0,0.0
1.6311619772993284,-0.0914032279659642,0.0,0.0,0.0
1.6396894782323403,-0.09028611542140919,0.0,0.0,0.0
1.64935063779729,-0.08850255507379293,0.0,0.0,0.0
1.6599414196750513,-0.08605853619668298,0.0,0.0,0.0
1.671239474277114,-0.08301501625457722,0.0,0.0,0.0
1.6830289653669677,-0.07948709962119285,0.0,0.0,0.0
1.6951271384481208,-0.07563500750897476,0.0,0.0,0.0
1.7074095683229076,-0.07164914699864873,0.0,0.0,0.0
1.719830692220071,-0.06773243903001532,0.0,0.0,0.0
1.7324352507088079,-0.06408332520523828,0.0,0.0,0.0
1.7453564157069381,-0.06088200318031304,0.0,0.0,0.0
1.7587982845068346,-0.0582810419269239,0.0,0.0,0.0
1.7730032122206179,-0.056400390387105925,0.0,0.0,0.0
1.788207787189141,-0.05532565367890256,0.0,0.0,0.0
1.8045947519362981,-0.055107218143908065,0.0,0.0,0.0
1.8222507698077,-0.055757342856869334,0.0,0.0,0.0
1.8411398556920253,-0.057243742775124944,0.0,0.0,0.0
1.8610981238491637,-0.059480892640244955,0.0,0.0,0.0
1.8818487238491313,-0.06232237700047932,0.0,0.0,0.0
1.9030302935592907,-0.06555788693725889,0.0,0.0,0.0
1.9242306204356174,-0.068917340131427,0.0,0.0,0.0
1.9450190408790964,-0.07208350517136307,0.0,0.0,0.0
1.964973924605598,-0.07471411106778277,0.0,0.0,0.0
1.9837036163670603,-0.07647271249868791,0.0,0.0,0.0
2.000860698741262,-0.07706285405774131,0.0,0.0,0.0
2.016150574858307,-0.07625620607733194,0.0,0.0,0.0
2.0293356278171517,-0.07390742846246143,0.0,0.0,0.0
2.040236124355066,-0.06995473684329839,0.0,0.0,0.0
2.048728996666936,-0.06441023490542584,0.0,0.0,0.0
2.0547450005203336,-0.057346204835318194,0.0,0.0,0.0
2.058264117584627,-0.04888312604732644,0.0,0.0,0.0
2.0593094977557818,-0.03918275185900312,0.0,0.0,0.0
2.057940866850346,-0.028446374483530126,0.0,0.0,0.0
2.054248252794529,-0.016915986010043262,0.0,0.0,0.0
2.0483464327819783,-0.004875473527658017,0.0,0.0,0.0
2.0403697784922032,0.007349680463233487,0.0,0.0,0.0
2.0304662133217706,0.019394205142321395,0.0,0.0,0.0
2.0187887274654277,0.030856457308524075,0.0,0.0,0.0
2.005484050413486,0.041304422414228874,0.0,0.0,0.0
1.990679762584758,0.050284945880010576,0.0,0.0,0.0
1.9744723065474599,0.05733575678887661,0.0,0.0,0.0
1.9569193480155052,0.06200015246839628,0.0,0.0,0.0
1.9380403521951743,0.06384569909486576,0.0,0.0,0.0
1.9178276665720246,0.062488657337608236,0.0,0.0,0.0
1.8962674327821372,0.05762476760093681,0.0,0.0,0.0
1.8733675479746656,0.04906615966540753,0.0,0.0,0.0
1.8491892680911237,0.03678346387153117,0.0,0.0,0.0
1.8238785134379638,0.020950174113800443,0.0,0.0,0.0
1.7976916637293852,0.0019826995477561517,0.0,0.0,0.0
1.7710097228432549,-0.019434150463833275,0.0,0.0,0.0
1.7443356030034352,-0.04234861627551762,0.0,0.0,0.0
1.7182714213210555,-0.0655823718475362,0.0,0.0,0.0
1.693474940615584,-0.08781751375176033,0.0,0.0,0.0
1.6705977583580889,-0.10772694414070107,0.0,0.0,0.0
1.6502143583609152,-0.12412850625343803,0.0,0.0,0.0
1.6327578446500934,-0.1361301987273513,0.0,0.0,0.0
