v_x,v_y,omega,delta
6.478162345858099,-0.18087313986002768,0.4532504532390218,-0.0290719651449819,-0.8581542944339079
6.420707440149449,-0.18279227627641903,0.4780214692311888,-0.02504062948988326,-1.3144532843851646
6.363257324785626,-0.18512463903323648,0.5028779673706721,-0.020506695843758395,-1.7585163048253305
6.304931776491453,-0.18842850411574003,0.5279000381671678,-0.01568420910919313,-2.177355113450616
6.244784195849429,-0.19317431397057058,0.5531517824455784,-0.010790811143591924,-2.5594840242413883
6.181875421374429,-0.11059414008009208,0.578659321453995,0.04338454698999497,-2.8955488808239527
6.1153562324175175,-0.11515603325054637,0.6043996057360369,0.047191992011471125,-3.1788054983636758
6.044548121839589,-0.12175330698078199,0.6303010912047273,0.05130173705256293,-3.4054612253052237
5.969010015765212,-0.13035175285587686,0.656248267360619,0.055702533450831496,-3.5748150044324505
5.888581372706895,-0.14083160445282716,0.6820769692945341,0.060369270674183385,-3.689086937074909
5.803396633238679,-0.15302100808087227,0.7075559879728519,0.06525355897730974,-3.7529288816817425
5.713870109494521,-0.16673037734111418,0.7323606885129788,0.07027403254516423,-3.772740148790597
5.620653219264906,-0.18178249514317396,0.7560485373676903,0.07530755527565072,-3.755961329244132
5.52456817486098,-0.19803408057290814,0.7780499167401262,0.08018266533122752,-3.710516807041757
5.42652538960704,-0.21538682853912555,0.7976877888349256,0.08467747109712195,-3.644494460279593
5.327435595931908,-0.23378988775294235,0.8142294302298831,0.0885253419401224,-3.5659916386883963
5.228129737606846,-0.2532382236887374,0.8269597967498084,0.09143208189854803,-3.48294850969491
5.129299307553137,-0.2737695536041759,0.8352616471145352,0.0931076803240475,-3.4027732732330045
5.031467432813058,-0.2954587223401026,0.8386897999891165,0.09331372475733203,-3.3316729936991165
4.934995734689057,-0.31840683782036006,0.8370247294912163,0.09191884504624674,-3.2738979037463216
4.84012335834959,-0.3427236267147278,0.8302881177986079,0.08893930813213026,-3.231335989873549
4.7470258108927466,-0.3685028963916198,0.8187128868514744,0.08453990967287012,-3.2037104051418153
4.655876313793224,-0.3957925266778428,0.8026780247005485,0.07899420076057481,-3.1892030058486482
4.566892415489176,-0.42456297030859824,0.7826277568914386,0.07262815895007306,-3.1851394370975243
4.480356012812171,-0.45468040190784603,0.7589922446704417,0.06577142185017572,-3.188505881171321
4.396604778163412,-0.48588995599825524,0.7321246221934641,0.05872526165539206,-3.1962499153277375
4.316001914480125,-0.5178112687630678,0.7022717181325635,0.051746635450412,-3.2054403726344485
4.238894250081515,-0.5499463085307368,0.6695938307851564,0.04504509113692881,-3.213425488280488
4.165567940436983,-0.581699999266124,0.6342340973605028,0.03878865570658087,-3.21805170330155
4.096210680230293,-0.6124139818585786,0.5964170180556649,0.03311436827827157,-3.2178507937394047
4.030888589414242,-0.6414094082637358,0.5565448634863918,0.028139261660856736,-3.2120860640004127
3.9695422506407905,-0.6680296438524257,0.5152648529036633,0.023968509050841073,-3.200663889991929
3.912001270701791,-0.6916751635976283,0.4734910254069281,0.020699025383344755,-3.1839606243727596
3.85801334571061,-0.7118292419150369,0.43237890969370063,0.018418541112066717,-3.1625804320031285
3.8072820688626363,-0.7280750460472373,0.3932658385774207,0.01720120089454368,-3.1370983523370066
3.7595062115336133,-0.7401002269248852,0.35759666195876827,0.017101480201772063,-3.10789443247334
3.714412793066052,-0.7476837046147838,0.3268501245750714,0.018149245944922832,-3.0750991195432893
3.671778434318626,-0.7506670476332991,0.30247102575549456,0.02034853134615018,-3.0385609851195747
3.6314370872027792,-0.7489217317972149,0.2858054790014799,0.023680320635676492,-2.9978029375749333
3.59327483127785,-0.7423248097282205,0.27803479907662493,0.02810746277664769,-2.952058882730448
3.557213893532349,-0.7307505837565873,0.28010632005563463,0.03357925341131477,-2.900463380850508
3.523189534722271,-0.7140798922335595,0.29266551209776887,0.04003421081875297,-2.8423267271536963
3.4911245164122318,-0.6922241538311412,0.3159998513425027,0.047401486706488756,-2.777372125010202
3.460905461912916,-0.6651594469449754,0.35000349796351493,0.055602660484131705,-2.7058960568358996
3.432363951878763,-0.6329661390496766,0.39416424017562984,0.0645554004304291,-2.628900035544094
3.405263934662211,-0.5958698934794427,0.4475716076593868,0.07417890891582342,-2.548210347951729
3.3792966479453104,-0.5542792889454923,0.5089499796549882,0.08439948738443864,-2.4664956337875523
3.3540843875745447,-0.5088145790270795,0.5767221601918953,0.0951545348108734,-2.3870633472605793
3.3291943578768564,-0.4603217235297522,0.6491009122532028,0.10639414858905977,-2.3134210561628463
3.304162708155967,-0.4098652324485302,0.724197793061867,0.11807993189825834,-2.2487324394552943
3.278526453838815,-0.35869380900524034,0.800138420141385,0.1301813691412892,-2.1953582757377483
3.2518586115106713,-0.3081773609055677,0.8751730915904037,0.14267119982129428,-2.154594500131179
3.2238012797876556,-0.259721456017732,0.9477667229023821,0.155521250515309,-2.126583858021844
3.194092535718917,-0.21466863331336117,1.0166520200689144,0.16869917502175674,-2.11033191165413
3.1625844430927197,-0.17419435063404168,1.0808398952524345,0.18216530834309086,-2.103819324985141
3.129250338825886,-0.13920869333815467,1.1395929543630765,0.19586798478658277,-2.1042430621102866
3.0941808616931312,-0.11028395337672603,1.1923745322530703,0.20973625936828416,-2.1083470304849543
3.05757065931372,-0.08762751699185761,1.2387902719341672,0.223671720163746,-2.1127116372182155
3.0196991760823226,-0.07110390084375015,1.2785421664837264,0.23754443476525705,-2.1139382767865387
2.980907785592138,-0.06029330790667772,1.3114117078317185,0.2511976696042074,-2.108825359874852
2.9415742853899847,-0.05456822251004903,1.337279241860003,0.26446028927959564,-2.094634596266116
2.9020866808823995,-0.053172665699639604,1.3561725380562297,0.27716123706522783,-2.06939510036732
2.8628197434884077,-0.0552940840419586,1.3683248420862506,0.28914253715053406,-2.03212566963139
2.8241177023867077,-0.06012116295970926,1.3742219175025978,0.3002716476801056,-1.9829155591198429
2.7862844427268154,-0.06688302414091418,1.37462593914039,0.3104545779796282,-1.9228591501806418
2.7495802668213023,-0.0748689609916271,1.3705696382801176,0.31964600013067584,-1.853862789851404
2.714223028049063,-0.08343237932643938,1.3633166835295556,0.3278471007200934,-1.7783721891366289
2.6803917007716933,-0.09198566410730794,1.3542879853936145,0.33508680866502255,-1.6990888707769758
2.6482314078761213,-0.09999404664534739,1.3449576810569501,0.34139565531509336,-1.6187303725351188
2.6178588944931502,-0.10697597247856264,1.3367296244945364,0.34678805981067495,-1.5398497495131693
2.5893663856846714,-0.11251369142718223,1.3308151398908556,0.3512618912264293,-1.4646953876366513
2.562821791080356,-0.1162722698495143,1.3281351391800935,0.35481307240969245,-1.3950798142905887
2.5382648879087983,-0.11802161703280448,1.3292606397847941,0.35745660281518854,-1.33222669698383
2.515701059227284,-0.11765510616437799,1.3343963198277518,0.3592452990038354,-1.2766108502386504
2.4950954505402123,-0.11519869543146402,1.343406857113626,0.3602811093626669,-1.2278832750078075
2.476370157554497,-0.11080665447426402,1.3558774888802756,0.36071621477092597,-1.1849466977325191
2.4594053678027157,-0.1047435663943713,1.3711913880104871,0.3607416132355903,-1.1461282767020613
2.4440445011312706,-0.09735455997630438,1.388609989148141,0.3605642516279435,-1.1093634206619274
2.4301036088548766,-0.08902687863726655,1.407353386075735,0.3603803044718633,-1.0723732828839123
2.41738439830953,-0.08014775542697403,1.426680035234035,0.3603551671472149,-1.0328717911223517
2.4056891283209865,-0.07106494153078668,1.4459587163615495,0.3606158808698265,-0.9888231202051789
2.3948362230434417,-0.062055524368401366,1.464721768776414,0.3612531097631271,-0.9387010462233188
2.384675910231121,-0.05330705818034123,1.4826889277517823,0.3623244051948076,-0.8816596142595688
2.3751043293341256,-0.04491350745731679,1.4997560862973598,0.36385193922414893,-0.8175772911514869
2.3660744065925794,-0.036886270610825805,1.5159551249975385,0.3658155904620095,-0.7470095617001749
2.3576023857897956,-0.02917778082339173,1.531400154312481,0.3681495195938093,-0.6710833694268366
2.349768676777347,-0.021713076228773054,1.5462319064188454,0.3707490649842494,-0.5913335132216813
2.342711685281207,-0.014423417789018428,1.5605644109139638,0.3734871688258956,-0.5094879944939981
2.3366147911992012,-0.007275777836922154,1.5744393137145996,0.3762343468152848,-0.4272366623418012
2.331688468083333,-0.0002935521965812815,1.5877979206950865,0.3788756220436501,-0.34602578331278505
2.328150426658451,0.006433938496208547,1.600478743648183,0.3813195507351826,-0.2669192490291503
2.3262066114495603,0.012754372338716763,1.612242453530989,0.3834978786833106,-0.19056498388322765
2.3260351498338245,0.018467867049647008,1.6228211397032481,0.38535797837819125,-0.11728029693377942
2.327774388783269,0.023352414514970637,1.6319799121321363,0.3868520071752952,-0.04722174545190328
2.3315152867503444,0.027194619972298495,1.6395702646974806,0.3879272097445695,0.019430598473497814
2.337297726014472,0.029822191636824535,1.6455586863207556,0.3885212781033735,0.082345556790612
2.3451103126609176,0.031136738729968833,1.6500275192050802,0.388563930312856,0.14100665504398818
2.3548937871366022,0.031144080292589943,1.6531521379165517,0.3879827280861168,0.1947686863356343
2.366547861807594,0.029975372365756675,1.6551568863732151,0.38671189369115955,0.24299198252528184
2.379940344851852,0.027890686384080432,1.6562553629749188,0.3847051945373825,0.2852316485330494
2.3949173845376635,0.025259082716163755,1.6565905314822433,0.38195164249535274,0.3214278821710224
2.4113138527732927,0.02251403519791928,1.6561916305930053,0.3784883450992835,0.3520263201519038
2.4289621373599597,0.020089074402076496,1.6549567072371971,0.3744050917569806,0.3779738825514397
2.447697661321101,0.018344845814941974,1.652664720226894,0.3698389499417529,0.40058815423604266
2.4673612348159835,0.01750213224871547,1.6490161653524706,0.3649598779317422,0.42136723654268243
2.487799771430659,0.01759354030404675,1.643690840850268,0.35995043525339154,0.441824314847588
2.508866870408722,0.018442211637305084,1.6364098090097163,0.35498417663846016,0.4633726840279651
2.5304239908553536,0.019671447880461018,1.6269965798726758,0.350205908630865,0.4872267936720901
2.5523420439697313,0.020743360628545593,1.6154308219527984,0.3457150878575394,0.5143001129784349
2.574503356058268,0.021019421528183063,1.6018819265885513,0.34155584997744604,0.545123374022363
2.5968051429557795,0.019834496293150594,1.586716865148519,0.33772008404600984,0.5797916462753663
2.6191654384414353,0.01657563271257484,1.5704829634007518,0.3341666231462398,0.6179347888007765
2.641530164026266,0.010755103715498121,1.5538617915504376,0.33085147427464406,0.6587233298999353
2.6638783695573376,0.0020677383327455667,1.5375959117138316,0.327758830124139,0.7008893339327802
2.686223377289285,-0.009573886510255675,1.5224063971507145,0.32492325143621975,0.742731172620905
2.7086097579794,-0.024029081563368693,1.5089230348453597,0.32243665849700176,0.7821594308877045
2.731107668962766,-0.04094297355074286,1.4976364719114865,0.3204378060251875,0.8168852921698646
2.753805659997966,-0.05978272400753251,1.4888642832876657,0.3190866225135595,0.8447824181744547
2.776801787579763,-0.07989363845776551,1.4827186828264598,0.31852859855541266,0.8643602486282966
2.800192700362117,-0.10056965496863296,1.479078388798517,0.318854299544209,0.8752144934367804
2.8240608620846923,-0.12112921310483943,1.4775762869032125,0.32005930294392193,0.8782897128116952
2.8484604633221546,-0.14098775763241947,1.4776068197637415,0.32201140767503034,0.8758233791694495
2.8734033472772658,-0.15971792861842712,1.4783553445201605,0.3244328830771171,0.8709302526344516
2.898847225958185,-0.17708616342637684,1.4788581396027636,0.326906074567992,0.8669209166746853
2.9246883424470598,-0.1930567524975997,1.4780984678782383,0.3289112231708524,0.8665725962294256
2.950759424092568,-0.20776325570451765,1.4751297342615708,0.3299019433959169,0.8715984535782301
2.976832984628798,-0.2214564025649502,1.4691975657096927,0.3294097732035266,0.8824791979280058
3.0026305993876297,-0.23444153250640917,1.4598217969595801,0.3271472723191005,0.8986613141335837
3.0278386954973175,-0.247016966483636,1.4468093877836292,0.3230684128494383,0.9189806424155226
3.052129461950823,-0.25942087868748953,1.4301927165893642,0.3173588359751466,0.9421451775048236
3.0751839355074027,-0.27179060235936287,1.4101144169284958,0.3103580496383101,0.9671683170053753
3.096715249372145,-0.2841356530060616,1.3867026475466029,0.3024440890627793,0.9936844978878998
3.11649228329973,-0.2963250476153596,1.3599855796279066,0.29392348043488364,1.022089365934748
3.134364522450431,-0.30808998128167175,1.3298762263726913,0.28495984551030096,1.053445697768691
3.150286359844047,-0.319042626909344,1.2962296913068139,0.2755561920502929,1.0891293661357524
3.164335379872136,-0.3287109936235393,1.2589498362721045,0.26559187904456993,1.1302831343853093
3.1767180194290767,-0.33658936368713077,1.218110397714532,0.25490132687978884,1.177246311360625
3.1877591505894927,-0.34220194048032754,1.174057101332958,0.24336491836917112,1.2291791755022548
3.1978775175034446,-0.34517293690262,1.127465388932037,0.2309771931001061,1.2840413082726052
3.2075527557685817,-0.3452927901751216,1.0793340631122768,0.21787260296323763,1.3389067520886497
3.2172900997723115,-0.342569996599593,1.030900848020425,0.2043095139975273,1.3904730883256302
3.2275871175109687,-0.3372594454500813,0.9834798469583902,0.1906218912327017,1.4356557568540709
3.238904964522732,-0.3298588828908504,0.9382436456934576,0.17715034494421544,1.4722085721595637
3.2516452153256545,-0.3210668654885873,0.8959979864911014,0.16416992090960494,1.499242413017516
3.266132076699299,-0.31170238050763976,0.8570090838879714,0.15183593823220057,1.5174433797929958
3.282599403880351,-0.30259705163876505,0.8209318344830678,0.14016345716461312,1.5288844485485198
3.301182912848853,-0.2944789146769146,0.7868600831273114,0.1290441601439736,1.5365196336092135
3.3219193583612903,-0.28786915251227235,0.7534892795697162,0.11829283737214338,1.543562184944477
3.3447546925746376,-0.28301110828907444,0.7193543521188971,0.10770683699701945,1.5529375307720463
3.369561716742101,-0.2798449988392546,0.6830893726954002,0.09711924069210497,1.5669425730168551
3.396165458413679,-0.27803252532002476,0.6436542319447833,0.08643251804721475,1.5871475018789982
3.424372738410543,-0.27702515015814233,0.600486128079515,0.07562990047482823,1.6144676463310108
3.4540016112417753,-0.27616175289273187,0.553554951110532,0.06476943619206275,1.6493005186695209
3.4849068288231946,-0.2747778158894611,0.5033219445261775,0.053967508978481876,1.6916691910928348
3.5169991392889264,-0.27230792753642324,0.4506180925246661,0.043377207788673,1.74137077641147
3.5502580181738894,-0.2683648226203969,0.39647842817196377,0.033165667926039456,1.7981533791039561
3.584738096809318,-0.26278273121364265,0.3419820586483396,0.023493830195249067,1.8619052025841971
3.6205690333832248,-0.2556210902868376,0.28813595317944435,0.01450151004233758,1.932781690084323
3.6579480023641597,-0.24713376736155496,0.23581023385683797,0.006299662893581829,2.0111992860273413
3.6971243826032825,-0.23771523618750273,0.18571146379719447,-0.0010304621100919672,2.097660943993461
3.738377278873738,-0.22783671523246454,0.1383793894452945,-0.007433890187249851,2.192412791194167
3.781987225237922,-0.21798244576592815,0.09420249501639574,-0.01287737496353752,2.295011247898348
3.8282038216379353,-0.20859212400363825,0.05345447352357173,-0.017345739459171797,2.403974721720432
3.877212060894464,-0.20001348423119822,0.016349003648256012,-0.02083961762002397,2.516676930519853
3.929101592797306,-0.19246924590665798,-0.016899737579074346,-0.023374482685557377,2.629522010974072
3.983843764792465,-0.18604231520486236,-0.04602839518907508,-0.02498093824191692,2.7383593608636243
4.041280500008278,-0.18068064952742033,-0.07070441794779893,-0.025706078248597625,2.8390562390661436
4.1011277288727115,-0.17621934685441903,-0.090544352399886,-0.025615325827291195,2.9280743885134872
4.162994269184237,-0.17241393535576519,-0.10516604062621732,-0.02479411631797999,3.002864631990249
4.226414025242954,-0.16897736054887563,-0.11425986059451074,-0.023348953681147568,3.0619955021793115
4.290885435005455,-0.16561485468413145,-0.11766656231415623,-0.02140758063252615,3.1050545051211267
4.355908758690961,-0.16205443037512463,-0.1154586189993116,-0.019118187422948126,3.1323612806032903
4.421011591321285,-0.15807355390766248,-0.10802610279834633,-0.01664730385232793,3.144484848102565
4.485758559128525,-0.1535230022623679,-0.09616211459801446,-0.014175624976212534,3.141603080949825
4.549748789388811,-0.14834741667296664,-0.08113247496791232,-0.011891457735888244,3.1228503024243652
4.6126051525906595,-0.14260067670241838,-0.06470909037477585,-0.00998249852301179,3.0858323567234245
4.673954377825557,-0.1364541235715023,-0.04914884016127147,-0.008627270775031903,3.026439128445007
4.733398528468559,-0.13019535833144133,-0.037104903251290726,-0.007987304201029716,2.9390603125963137
4.79048541517099,-0.12421356139633674,-0.031463522402925694,-0.008200224281519244,2.8172937386654358
4.844688449695213,-0.11896640832918218,-0.035111767018264475,-0.009373149727742029,2.655096661599493
4.895403284557012,-0.11492687213313496,-0.050660024371576004,-0.011575842348765998,2.448118113620425
4.941963315991411,-0.11251469211317192,-0.08015611864747973,-0.014833735397526252,2.1948705166450933
4.983671440043765,-0.11202329991212717,-0.12483070213289826,-0.019121700220303905,1.8974868889486896
5.019842715244213,-0.1135557317164778,-0.18490806602725873,-0.024359658655973827,1.561922959268767
5.049851660226381,-0.11698185243757456,-0.25950614135897176,-0.030410915700839748,1.1975317122795215
5.073177714572597,-0.12192542401791652,-0.34664101944031345,-0.037084294276174705,0.8160118519198046
5.089442702307809,-0.12778513453865872,-0.443347171809839,-0.044141965838166916,0.4298768345622571
5.0984352538902975,-0.1337884370502887,-0.5459146589259721,-0.051314748647395374,0.050792427945013575
5.10011888142505,-0.13907023041082037,-0.6502235021982897,-0.05832481529378634,-0.3117696115710802
5.094622213389147,-0.1427624401463144,-0.7521311242479364,-0.06491307606841397,-0.6512576806195092
5.082211386978249,-0.1440781282189636,-0.8478505918158149,-0.0708657355122293,-0.9641180328011743
5.063246391754489,-0.14237527646389006,-0.9342564350012771,-0.07603285858054203,-1.2493881688759807
5.038126546989807,-0.13719096871008393,-1.0090793348376836,-0.08033327523200545,-1.5080243643804034
5.007234483522002,-0.12824541845132448,-1.0709839679799664,-0.08374519385363237,-1.7421484086435806
4.970889896849404,-0.11542377795896858,-1.119541151088369,-0.08628787790798498,-1.9543376815940585
4.929323008469805,-0.09874850651649349,-1.1551102368372774,-0.08800252657216218,-2.147031752180727
4.8826748529334685,-0.07835436305931463,-1.178653717272763,-0.08893823169726073,-2.3220659091793285
4.831027096028773,-0.05447222153699188,-1.1915094239632678,-0.08914415436287947,-2.480310540040664
4.774457031347423,-0.027420893419303483,-1.1951467096474053,-0.0886654925367106,-2.6214755776058003
4.713105969038653,0.0023977381741404347,-1.190938871406882,-0.08754007827882257,-2.7442154660288978
4.64724524979175,0.03450588375118652,-1.1799860612629465,-0.08579444136820365,-2.846572284971247
4.577324943128625,0.06836487573456917,-1.163010418348352,-0.08344060288041029,-2.926609040807811
